#Procedure: <__main__.IVProcedure>
#Parameters:
#	Current Step: 1e-05 A
#	Delay Time: 20 ms
#	Maximum Current: 0.001 A
#	Minimum Current: -0.001 A
#Data:
Current (A),Voltage (V),Resistance (ohm)
0.0,0.914942951,nan
1e-05,2.02407477,202407.47699999998
2e-05,2.05002494,102501.247
3.0000000000000004e-05,2.06470137,68823.37899999999
4e-05,2.07673466,51918.3665
5e-05,2.0869453,41738.905999999995
6.000000000000001e-05,2.09638238,34939.70633333333
7.000000000000001e-05,2.1048265,30068.95
8e-05,2.11307782,26413.472749999997
9e-05,2.12040537,23560.059666666664
0.0001,2.12737266,21273.726599999998
0.00011,2.13384193,19398.563
0.00012000000000000002,2.14090267,17840.85558333333
0.00013000000000000002,2.14741704,16518.592615384616
0.00014000000000000001,2.15415293,15386.80664285714
0.00015000000000000001,2.16080301,14405.353399999998
0.00016,2.16753309,13547.081812499999
0.00017,2.17386232,12787.425411764705
0.00018,2.17966746,12109.263666666666
0.00019,2.18590923,11504.785421052631
0.0002,2.19200479,10960.023949999999
0.00021,2.1981256,10467.264761904762
0.00022,2.20376409,10017.109499999999
0.00023,2.2098312,9607.961739130435
0.00024000000000000003,2.21610167,9233.756958333332
0.00025,2.22236279,8889.45116
0.00026000000000000003,2.22770468,8568.094923076922
0.00027,2.23358746,8272.546148148147
0.00028000000000000003,2.23887777,7995.9920357142855
0.00029,2.24486563,7740.915965517242
0.00030000000000000003,2.24981783,7499.392766666666
0.00031,2.25603427,7277.529903225805
0.00032,2.26178174,7068.067937499999
0.00033000000000000005,2.26693691,6869.5057878787875
0.00034,2.27211134,6682.680411764705
0.00035000000000000005,2.27782866,6508.081885714285
0.00036,2.28346551,6342.95975
0.00037000000000000005,2.28933804,6187.400108108108
0.00038,2.293995,6036.82894736842
0.00039000000000000005,2.29978552,5896.885948717948
0.0004,2.30562571,5764.064275
0.00041000000000000005,2.31106977,5636.755536585365
0.00042,2.31666194,5515.861761904762
0.00043000000000000004,2.32191272,5399.797023255813
0.00044,2.32726187,5289.231522727273
0.00045000000000000004,2.33256127,5183.469488888888
0.00046,2.33800242,5082.613956521739
0.00047000000000000004,2.34337455,4985.90329787234
0.00048000000000000007,2.34826264,4892.213833333333
0.0004900000000000001,2.35353751,4803.137775510204
0.0005,2.35888885,4717.7777
0.00051,2.36516032,4637.56925490196
0.0005200000000000001,2.37017056,4558.020307692307
0.0005300000000000001,2.37577496,4482.594264150943
0.00054,2.38062954,4408.573222222222
0.00055,2.38787136,4341.584290909091
0.0005600000000000001,2.39234225,4272.039732142856
0.0005700000000000001,2.39853971,4207.964403508771
0.00058,2.4048287,4146.2563793103445
0.00059,2.41042687,4085.469271186441
0.0006000000000000001,2.41661162,4027.6860333333325
0.0006100000000000001,2.42202452,3970.5319999999992
0.00062,2.42801855,3916.1589516129034
0.00063,2.43345813,3862.631952380952
0.00064,2.43903614,3810.9939687499996
0.0006500000000000001,2.44691403,3764.4831230769223
0.0006600000000000001,2.45337221,3717.2306212121207
0.00067,2.45856935,3669.506492537313
0.00068,2.46432735,3624.0108088235293
0.0006900000000000001,2.46958161,3579.1037826086954
0.0007000000000000001,2.47592954,3537.0421999999994
0.00071,2.47957338,3492.356873239437
0.00072,2.48861951,3456.4159861111107
0.0007300000000000001,2.49367291,3415.9902876712326
0.0007400000000000001,2.50009458,3378.5061891891887
0.00075,2.50477625,3339.7016666666664
0.00076,2.51223104,3305.5671578947367
0.0007700000000000001,2.51937777,3271.9191818181816
0.0007800000000000001,2.52416552,3236.1096410256405
0.00079,2.53191681,3204.957987341772
0.0008,2.53749055,3171.8631874999996
0.0008100000000000001,2.54578019,3142.938506172839
0.0008200000000000001,2.55204022,3112.2441707317066
0.0008300000000000001,2.56056829,3085.0220361445777
0.00084,2.5691796,3058.5471428571427
0.0008500000000000001,2.57547559,3029.9712823529408
0.0008600000000000001,2.58497279,3005.782313953488
0.0008700000000000001,2.59137812,2978.5955402298846
0.00088,2.60059497,2955.221556818182
0.0008900000000000001,2.60953348,2932.0600898876405
0.0009000000000000001,2.61468612,2905.2068
0.0009100000000000001,2.62749433,2887.3564065934065
0.00092,2.63738566,2866.723543478261
0.00093,2.64782688,2847.125677419355
0.0009400000000000001,2.65461427,2824.057734042553
0.0009500000000000001,2.66291771,2803.07127368421
0.0009600000000000001,2.67233109,2783.67821875
0.00097,2.68234757,2765.3067731958763
0.0009800000000000002,2.69798419,2753.045091836734
0.00099,2.70767574,2735.026
0.001,2.71716386,2717.1638599999997
0.00099,2.70489963,2732.2218484848486
0.00098,2.69760214,2752.655244897959
0.0009699999999999999,2.68377735,2766.7807731958765
0.0009599999999999999,2.6759585,2787.456770833334
0.0009499999999999999,2.66788481,2808.2998000000002
0.0009399999999999999,2.65555729,2825.060946808511
0.0009299999999999998,2.64688741,2846.1154946236566
0.0009199999999999998,2.63847471,2867.9072934782616
0.0009099999999999998,2.62807609,2887.995703296704
0.0008999999999999998,2.62051705,2911.685611111112
0.0008899999999999997,2.60952749,2932.0533595505626
0.0008799999999999997,2.59849916,2952.8399545454554
0.0008699999999999997,2.5926741,2980.085172413794
0.0008599999999999997,2.58720071,3008.372918604652
0.0008499999999999996,2.57959608,3034.81891764706
0.0008399999999999996,2.57208282,3062.0033571428585
0.0008299999999999996,2.56417269,3089.3646867469893
0.0008199999999999995,2.55781631,3119.2881829268313
0.0008099999999999995,2.55098697,3149.3666296296315
0.0007999999999999995,2.54309146,3178.864325000002
0.0007899999999999995,2.53749965,3212.0248734177235
0.0007799999999999994,2.52991055,3243.475064102566
0.0007699999999999994,2.52256446,3276.057740259743
0.0007599999999999994,2.51652084,3311.2116315789503
0.0007499999999999994,2.51005303,3346.737373333336
0.0007399999999999993,2.50370446,3383.384405405408
0.0007299999999999993,2.49691862,3420.4364657534284
0.0007199999999999993,2.49222296,3461.420777777781
0.0007099999999999993,2.48511228,3500.1581408450743
0.0006999999999999992,2.47819748,3540.2821142857183
0.0006899999999999992,2.47035092,3580.218724637685
0.0006799999999999992,2.46518231,3625.2681029411806
0.0006699999999999992,2.45819688,3668.9505671641837
0.0006599999999999991,2.45478688,3719.3740606060655
0.0006499999999999991,2.44682508,3764.3462769230823
0.0006399999999999991,2.44187287,3815.4263593750056
0.000629999999999999,2.43571383,3866.2124285714344
0.000619999999999999,2.42896922,3917.692290322587
0.000609999999999999,2.42330176,3972.6258360655806
0.000599999999999999,2.41663334,4027.7222333333407
0.0005899999999999989,2.41093936,4086.337898305092
0.0005799999999999989,2.40517835,4146.859224137938
0.0005699999999999989,2.39996927,4210.47240350878
0.0005599999999999989,2.39461448,4276.097285714294
0.0005499999999999988,2.38913964,4343.890254545463
0.0005399999999999988,2.38366361,4414.1918703703805
0.0005299999999999988,2.37823209,4487.230358490577
0.0005199999999999988,2.37244711,4562.398288461549
0.0005099999999999987,2.3668593,4640.900588235306
0.0004999999999999987,2.3612485,4722.497000000012
0.0004899999999999987,2.35573733,4807.627204081646
0.00047999999999999866,2.35062784,4897.141333333347
0.00046999999999999863,2.34595799,4991.399978723419
0.0004599999999999986,2.34022314,5087.441608695667
0.0004499999999999986,2.33436416,5187.475911111127
0.00043999999999999855,2.32905487,5293.306522727291
0.0004299999999999985,2.32359637,5403.712488372112
0.0004199999999999985,2.31769397,5518.318976190496
0.0004099999999999985,2.31148453,5637.7671463414845
0.00039999999999999845,2.30682148,5767.053700000022
0.0003899999999999984,2.30159774,5901.532666666691
0.0003799999999999984,2.29565892,6041.2076842105525
0.00036999999999999837,2.28997155,6189.112297297325
0.00035999999999999834,2.28427076,6345.196555555585
0.0003499999999999983,2.2790946,6511.698857142888
0.0003399999999999983,2.2735927,6687.03735294121
0.00032999999999999826,2.26861071,6874.5779090909455
0.00031999999999999824,2.26247355,7070.229843750039
0.0003099999999999982,2.25684623,7280.149129032299
0.0002999999999999982,2.2518597,7506.199000000045
0.00028999999999999816,2.24648257,7746.491620689704
0.00027999999999999813,2.24057372,8002.049000000054
0.0002699999999999981,2.23449097,8275.89248148154
0.0002599999999999981,2.22883541,8572.443884615448
0.00024999999999999805,2.2229816,8891.926400000068
0.00023999999999999803,2.21727509,9238.646208333408
0.000229999999999998,2.21149901,9615.213086956604
0.00021999999999999797,2.2054119,10024.599545454637
0.00020999999999999795,2.19966289,10474.585190476293
0.00019999999999999792,2.19375186,10968.759300000112
0.0001899999999999979,2.18773958,11514.418842105391
0.00017999999999999787,2.18162885,12120.16027777792
0.00016999999999999784,2.17547135,12796.89029411781
0.00015999999999999782,2.1692185,13557.615625000184
0.0001499999999999978,2.16241686,14416.112400000213
0.00013999999999999777,2.15610643,15400.76021428596
0.00012999999999999774,2.14925148,16532.703692307983
0.00011999999999999771,2.14241778,17853.48150000034
0.00010999999999999769,2.13516224,19410.56581818223
9.999999999999766e-05,2.12829231,21282.9231000005
8.999999999999763e-05,2.12150192,23572.243555556175
7.999999999999761e-05,2.11367017,26420.87712500079
6.999999999999758e-05,2.10533429,30076.204142858183
5.9999999999997555e-05,2.09676821,34946.13683333476
4.999999999999753e-05,2.08713597,41742.71940000206
3.99999999999975e-05,2.07663835,51915.95875000324
2.9999999999997477e-05,2.06480549,68826.84966667245
1.999999999999745e-05,2.04932152,102466.07600001305
9.999999999997424e-06,2.02193131,202193.13100005206
-2.6020852139652106e-18,1.1536634,nan
-1.0000000000002628e-05,-2.54298329,254298.32899993318
-2.0000000000002655e-05,-3.63882072,181941.03599997587
-3.000000000000268e-05,-3.85638772,128546.25733332185
-4.000000000000271e-05,-3.10727722,77681.93049999473
-5.000000000000273e-05,-3.4540358,69080.71599999623
-6.000000000000276e-05,-3.84547177,64091.19616666372
-7.000000000000279e-05,-3.87187326,55312.47514285494
-8.000000000000281e-05,-3.88567457,48570.93212499829
-9.000000000000284e-05,-3.49356476,38817.386222221
-0.00010000000000000286,-3.4015769,34015.768999999025
-0.00011000000000000289,-2.61654831,23786.802818181193
-0.00012000000000000292,-2.74368761,22864.06341666611
-0.00013000000000000294,-2.87510583,22116.19869230719
-0.00014000000000000297,-2.91682161,20834.44007142813
-0.000150000000000003,-2.96828693,19788.57953333294
-0.00016000000000000302,-4.78605973,29912.873312499432
-0.00017000000000000305,-4.83212351,28424.25594117596
-0.00018000000000000307,-4.8702841,27057.133888888427
-0.0001900000000000031,-4.81640321,25349.490578946952
-0.00020000000000000313,-4.93878026,24693.901299999612
-0.00021000000000000315,-5.37448867,25592.803190475806
-0.00022000000000000318,-5.13201101,23327.322772726937
-0.0002300000000000032,-5.26648837,22897.77552173881
-0.00024000000000000323,-5.69815883,23742.328458333013
-0.00025000000000000326,-6.27219293,25088.771719999673
-0.0002600000000000033,-5.72862691,22033.180423076647
-0.0002700000000000033,-5.73136505,21227.277962962704
-0.00028000000000000334,-5.83794452,20849.801857142607
-0.00029000000000000336,-6.00383938,20702.894413792863
-0.0003000000000000034,-6.2587102,20862.3673333331
-0.0003100000000000034,-6.22975953,20095.998483870746
-0.00032000000000000344,-6.39520578,19985.018062499785
-0.00033000000000000347,-6.3438405,19223.759090908887
-0.0003400000000000035,-6.55191873,19270.349205882154
-0.0003500000000000035,-6.57646772,18789.90777142838
-0.00036000000000000355,-6.73508798,18708.57772222204
-0.00037000000000000357,-6.7206013,18163.787297297124
-0.0003800000000000036,-29.9708397,78870.63078947294
-0.0003900000000000036,-29.9689351,76843.42333333261
-0.00040000000000000365,-29.9688784,74922.19599999931
-0.0004100000000000037,-29.9689605,73095.02560975545
-0.0004200000000000037,-29.9689341,71354.60499999937
-0.00043000000000000373,-29.9688014,69694.88697674358
-0.00044000000000000376,-29.9687214,68110.73045454487
-0.0004500000000000038,-29.9686222,66596.93822222167
-0.0004600000000000038,-29.9684783,65148.86586956468
-0.00047000000000000383,-29.9685654,63762.90510638246
-0.00048000000000000386,-29.9683568,62434.07666666616
-0.0004900000000000039,-29.9685594,61160.325306121966
-0.0005000000000000039,-29.968532,59937.06399999953
-0.0005100000000000039,-29.9684702,58761.70627450935
-0.000520000000000004,-29.9685654,57631.8565384611
-0.000530000000000004,-29.9685776,56544.48603773542
-0.000540000000000004,-29.9685918,55497.39222222181
-0.000550000000000004,-29.9686043,54488.37145454505
-0.0005600000000000041,-29.9685425,53515.25446428533
-0.0005700000000000041,-29.9686073,52576.50403508734
-0.0005800000000000041,-29.9685404,51669.89724137894
-0.0005900000000000041,-29.9685495,50794.1516949149
-0.0006000000000000042,-29.9686458,49947.74299999965
-0.0006100000000000042,-29.9685617,49128.789672130806
-0.0006200000000000042,-29.9685911,48336.43725806419
-0.0006300000000000043,-29.9685901,47569.19063492031
-0.0006400000000000043,-29.9685273,46825.82390624969
-0.0006500000000000043,-29.968516,46105.40923076893
-0.0006600000000000043,-29.9685332,45406.868484848186
-0.0006700000000000044,-29.9683346,44728.85761194
-0.0006800000000000044,-29.9683194,44071.05794117619
-0.0006900000000000044,-29.968284,43432.295652173634
-0.0007000000000000044,-29.9684734,42812.104857142585
-0.0007100000000000045,-29.9683164,42208.8963380279
-0.0007200000000000045,-29.9684015,41622.77986111085
-0.0007300000000000045,-29.9683904,41052.58958904084
-0.0007400000000000045,-29.9682972,40497.69891891867
-0.0007500000000000046,-29.9683668,39957.82239999976
-0.0007600000000000046,-29.968382,39432.08157894713
-0.0007700000000000046,-29.9684225,38920.02922077898
-0.0007800000000000046,-29.9682675,38420.85576923054
-0.0007900000000000047,-29.9683131,37934.573544303574
-0.0008000000000000047,-29.9682716,37460.33949999978
-0.0008100000000000047,-29.9680163,36997.550987654104
-0.0008200000000000048,-29.9682219,36546.612073170516
-0.0008300000000000048,-29.9682523,36106.32807228895
-0.0008400000000000048,-29.9682584,35676.49809523789
-0.0008500000000000048,-29.9682542,35256.76964705862
-0.0008600000000000049,-29.9682846,34846.84255813934
-0.0008700000000000049,-29.9683008,34446.322758620496
-0.0008800000000000049,-29.96832,34054.9090909089
-0.0008900000000000049,-29.9682897,33672.23561797734
-0.000900000000000005,-29.968237,33298.04111111093
-0.000910000000000005,-29.9682501,32932.142967032785
-0.000920000000000005,-29.9683484,32574.291739130258
-0.000930000000000005,-29.9682998,32223.978279569717
-0.0009400000000000051,-29.9682106,31881.075106382807
-0.0009500000000000051,-29.9682597,31545.53652631562
-0.0009600000000000051,-29.9682709,31216.9488541665
-0.0009700000000000051,-29.9682698,30895.123505154475
-0.0009800000000000052,-29.9683225,30579.920918367185
-0.0009900000000000052,-29.9682911,30271.00111111095
-0.001,-29.9683458,29968.345800000003
-0.00099,-29.9683073,30271.017474747474
-0.00098,-29.9683772,30579.97673469388
-0.0009699999999999999,-29.9683306,30895.186185567014
-0.0009599999999999999,-29.9683803,31217.062812500004
-0.0009499999999999999,-29.9683769,31545.659894736844
-0.0009399999999999999,-29.9683475,31881.220744680857
-0.0009299999999999998,-29.968381,32224.065591397855
-0.0009199999999999998,-29.9682989,32574.237934782617
-0.0009099999999999998,-29.9683283,32932.22890109891
-0.0008999999999999998,-29.9682766,33298.08511111112
-0.0008899999999999997,-29.9682645,33672.2073033708
-0.0008799999999999997,-29.9682554,34054.83568181819
-0.0008699999999999997,-29.9683151,34446.33919540231
-0.0008599999999999997,-29.9683759,34846.948720930246
-0.0008499999999999996,-29.9682956,35256.81835294119
-0.0008399999999999996,-29.968322,35676.57380952383
-0.0008299999999999996,-29.9683503,36106.44614457833
-0.0008199999999999995,-29.968173,36546.55243902441
-0.0008099999999999995,-29.9682065,36997.78580246916
-0.0007999999999999995,-29.9681011,37460.12637500002
-0.0007899999999999995,-29.968247,37934.48987341775
-0.0007799999999999994,-29.9681872,38420.75282051285
-0.0007699999999999994,-29.96825,38919.80519480522
-0.0007599999999999994,-29.9683503,39432.03986842109
-0.0007499999999999994,-29.9681545,39957.53933333337
-0.0007399999999999993,-29.9681383,40497.48418918923
-0.0007299999999999993,-29.9681423,41052.24972602744
-0.0007199999999999993,-29.9680967,41622.35652777782
-0.0007099999999999993,-29.9680977,42208.5883098592
-0.0006999999999999992,-29.9682071,42811.72442857148
-0.0006899999999999992,-29.9682051,43432.181304347876
-0.0006799999999999992,-29.9682082,44070.894411764755
-0.0006699999999999992,-29.9682223,44728.69000000006
-0.0006599999999999991,-29.9682173,45406.389848484905
-0.0006499999999999991,-29.96824,46104.98461538468
-0.0006399999999999991,-29.9682248,46825.35125000007
-0.000629999999999999,-29.9682826,47568.70253968261
-0.000619999999999999,-29.9681823,48335.777903225884
-0.000609999999999999,-29.9681367,49128.09295081975
-0.000599999999999999,-29.9680111,49946.68516666675
-0.0005899999999999989,-29.9681529,50793.47949152551
-0.0005799999999999989,-29.9680678,51669.0824137932
-0.0005699999999999989,-29.968237,52575.85438596501
-0.0005599999999999989,-29.9682299,53514.69625000011
-0.0005499999999999988,-29.9681269,54487.50345454557
-0.0005399999999999988,-29.9679882,55496.27444444457
-0.0005299999999999988,-29.967977,56543.35283018881
-0.0005199999999999988,-29.9680084,57630.78538461552
-0.0005099999999999987,-29.9673479,58759.50568627466
-0.0004999999999999987,-29.9671899,59934.379800000155
-0.0004899999999999987,-29.9676265,61158.42142857159
-0.00047999999999999866,-29.9677815,62432.87812500018
-0.00046999999999999863,-29.9675688,63760.78468085125
-0.0004599999999999986,-29.9678159,65147.42586956542
-0.0004499999999999986,-29.9676688,66594.81955555576
-0.00043999999999999855,-29.9677204,68108.45545454568
-0.0004299999999999985,-29.967761,69692.4674418607
-0.0004199999999999985,-29.967689,71351.64047619073
-0.0004099999999999985,-29.9677407,73092.05048780516
-0.00039999999999999845,-29.9679382,74919.84550000029
-0.0003899999999999984,-29.9680183,76841.07256410288
-0.0003799999999999984,-29.9679767,78863.0965789477
-0.00036999999999999837,-29.96792,80994.37837837874
-0.00035999999999999834,-29.9680162,83244.48944444483
-0.0003499999999999983,-29.9680047,85622.87057142898
-0.0003399999999999983,-29.9680057,88141.19323529456
-0.00032999999999999826,-29.9679864,90812.08000000048
-0.00031999999999999824,-29.9679783,93649.93218750051
-0.0003099999999999982,-29.9678851,96670.59709677476
-0.0002999999999999982,-29.9679874,99893.29133333394
-0.00028999999999999816,-29.9677504,103337.07034482824
-0.00027999999999999813,-29.9679175,107028.27678571499
-0.0002699999999999981,-29.9679692,110992.47851851929
-0.0002599999999999981,-29.9680148,115261.59538461623
-0.00024999999999999805,-29.9679655,119871.86200000093
-0.00023999999999999803,-29.9680323,124866.80125000102
-0.000229999999999998,-29.9680496,130295.86782608808
-0.00021999999999999797,-29.9680799,136218.54500000126
-0.00020999999999999795,-29.9681043,142705.25857142996
-0.00019999999999999792,-29.9681458,149840.72900000153
-0.0001899999999999979,-29.9681093,157726.89105263332
-0.00017999999999999787,-29.9680729,166489.29388889085
-0.00016999999999999784,-29.9681367,176283.15705882575
-0.00015999999999999782,-29.9680759,187300.47437500255
-0.0001499999999999978,-29.9680569,199787.04600000294
-0.00013999999999999777,-29.9681076,214057.91142857485
-0.00012999999999999774,-29.968143,230524.17692308093
-0.00011999999999999771,-29.9681329,249734.4408333381
-0.00010999999999999769,-29.9680893,272437.1754545512
-9.999999999999766e-05,-29.9680954,299680.954000007
-8.999999999999763e-05,-29.9681045,332978.93888889765
-7.999999999999761e-05,-29.9681329,374601.6612500112
-6.999999999999758e-05,-29.9680934,428115.6200000148
-5.9999999999997555e-05,-29.9680995,499468.3250000204
-4.999999999999753e-05,-29.9681093,599362.1860000296
